-60
-59
-69
-73
-71
-71
-71
-69
-76
-88
-84
-78
-85
-80
-78
-78
-79
-87
-85
-85
-77
-54
-1
75
121
144
140
124
118
104
104
111
119
123
117
103
78
67
59
62
59
60
53
43
30
13
0
-9
-19
-20
-31
-40
-48
-50
-56
-58
-61
-65
-68
-73
-80
-79
-77
-79
-76
-76
-78
-82
-84
-81
-80
-55
-6
49
99
130
141
127
120
104
104
103
113
120
107
91
70
58
53
44
50
51
38
25
17
3
-12
-31
-35
-38
-57
-61
-55
-62
-69
-75
-80
-80
-74
-82
-80
-83
-94
-100
-94
-99
-98
-94
-81
-94
-86
-82
-90
-71
-22
40
111
148
153
144
133
128
131
136
142
156
155
137
114
90
68
67
71
68
56
43
40
17
0
-11
-25
-27
-39
-51
-57
-65
-77
-78
-80
-86
-94
-91
-95
-93
-99
-90
-92
-99
-108
-108
-104
-103
-97
-87
-91
-96
-97
-92
-50
15
74
126
149
153
137
126
123
127
137
153
149
138
123
98
77
60
58
62
54
40
29
9
-3
-11
-26
-32
-47
-59
-72
-77
-79
-82
-80
-88
-88
-79
-88
-100
-101
-100
-93
-97
-96
-95
-96
-104
-96
-98
-100
-92
-86
-85
-75
-46
19
71
104
108
107
86
76
80
75
80
85
86
66
56
45
38
36
39
33
32
23
8
0
-7
-15
-30
-31
-37
-46
-48
-51
-60
-54
-58
-58
-65
-70
-69
-75
-73
-76
-80
-74
-79
-73
-70
-68
-60
-23
26
65
82
88
73
60
58
59
58
66
71
60
51
39
31
29
30
28
27
26
19
7
-3
-7
-10
-8
-17
-25
-24
-30
-32
-40
-44
-54
-58
-61
-53
-54
-64
-63
-61
-57
-51
-58
-57
-56
-56
-58
-61
-54
-51
-30
15
60
83
86
81
68
56
51
57
61
67
74
75
60
42
31
37
39
38
33
27
25
15
5
2
-6
-17
-18
-12
-19
-20
-27
-33
-34
-35
-36
-34
-38
-41
-44
-42
-38
-46
-48
-50
-52
-52
-46
-42
-45
-50
-48
-39
-16
22
67
91
85
76
59
53
56
57
66
74
66
62
52
38
29
27
28
27
30
29
18
17
8
-1
-12
-20
-16
-23
-24
-19
-26
-26
-24
-31
-34
-33
-34
-35
-29
-41
-46
-48
-41
-39
-41
-36
-44
-43
-45
-45
-15
22
58
67
64
56
40
31
27
33
41
41
42
37
24
15
22
20
19
17
24
21
16
4
-3
-12
-13
-14
-17
-19
-14
-19
-20
-19
-25
-26
-25
-33
-28
-26
-31
-29
-31
-32
-28
-30
-38
-36
-40
-29
5
45
72
77
75
60
46
46
49
53
58
56
52
42
32
24
22
24
27
30
26
22
17
5
6
-2
-7
-8
-8
-5
-9
-17
-19
-25
-26
-24
-27
-20
-22
-26
-28
-33
-27
-30
-35
-35
-35
-34
-29
-33
-32
-34
-31
-29
-18
12
45
74
77
67
56
46
43
48
61
60
57
59
53
32
24
24
26
31
33
26
14
18
19
6
0
1
1
-4
-11
-9
-7
-9
-7
-18
-11
-14
-11
-20
-31
-29
-28
-36
-35
-27
-26
-26
-28
-30
-28
-31
-33
-30
-31
-22
3
45
72
81
73
53
40
37
48
53
60
68
61
52
40
28
34
34
35
37
35
29
17
15
10
8
2
6
7
0
-5
-7
-7
-2
-7
-8
-15
-12
-22
-22
-22
-18
-20
-32
-26
-27
-27
-31
-31
-26
-20
-1
37
73
80
72
58
56
49
54
58
64
64
61
49
37
39
43
42
45
41
33
27
23
23
18
16
7
-2
0
-2
-3
-7
-11
-15
-20
-22
-18
-22
-27
-23
-26
-31
-36
-33
-36
-37
-38
-42
-33
-16
17
65
84
92
88
76
70
72
86
100
102
104
102
80
69
70
63
63
60
58
52
53
44
30
19
22
9
7
1
-1
-9
-16
-15
-23
-27
-31
-36
-35
-40
-47
-53
-51
-42
-47
-53
-54
-53
-48
-51
-57
-52
-56
-45
-9
42
85
93
91
88
86
87
91
98
102
112
104
96
88
73
67
64
62
60
60
54
49
34
21
16
14
3
-3
-11
-20
-28
-35
-38
-45
-42
-44
-48
-55
-57
-67
-68
-70
-75
-74
-75
-74
-79
-83
-90
-87
-85
-59
-25
21
61
77
76
68
62
57
56
62
71
80
64
50
46
33
26
31
25
16
10
10
0
-6
-18
-21
-23
-37
-42
-50
-54
-50
-60
-70
-78
-74
-74
-74
-84
-88
-83
-84
-81
-89
-91
-88
-92
-91
-71
-33
14
55
66
58
53
41
42
47
56
57
59
59
39
23
17
13
16
17
11
7
-1
-11
-19
-27
-36
-38
-38
-45
-54
-52
-58
-62
-64
-75
-74
-77
-78
-84
-86
-89
-88
-80
-82
-75
-73
-78
-77
-73
-74
-66
-29
13
44
62
65
63
46
42
50
55
61
67
69
56
40
29
25
20
28
24
20
17
6
4
-5
-16
-19
-20
-25
-37
-36
-38
-36
-46
-43
-39
-43
-55
-63
-60
-61
-56
-60
-62
-58
-58
-54
-59
-57
-62
-64
-57
-56
-36
7
42
66
66
64
50
48
52
50
52
64
63
57
49
34
26
30
34
26
24
21
21
7
4
0
-9
-13
-2
-18
-22
-17
-19
-18
-24
-32
-30
-32
-36
-40
-41
-39
-34
-36
-39
-47
-45
-49
-49
-41
-32
-7
29
56
62
55
50
43
38
38
44
44
50
45
35
29
24
23
21
19
20
18
12
6
-1
-11
-13
-7
-7
-16
-17
-21
-26
-24
-27
-26
-28
-27
-31
-35
-34
-37
-34
-39
-42
-43
-41
-43
-25
-1
34
56
55
54
42
42
38
43
49
52
58
54
39
23
15
10
24
26
16
14
10
4
5
1
-3
-13
-18
-17
-19
-21
-23
-26
-28
-25
-29
-28
-33
-31
-37
-40
-36
-42
-35
-38
-43
-43
-33
-36
-40
-36
-39
-19
14
47
58
51
43
33
25
31
45
47
48
51
47
32
23
16
18
21
23
23
18
9
9
4
-11
-8
-11
-9
-9
-7
-12
-20
-18
-22
-26
-24
-30
-26
-26
-30
-30
-26
-35
-37
-29
-36
-33
-32
-29
-27
-34
-33
-19
11
48
61
60
51
37
35
31
33
42
39
43
39
21
12
19
19
22
26
26
14
10
3
6
4
3
6
-1
-7
-7
-5
-8
-11
-19
-23
-16
-17
-22
-19
-20
-26
-23
-12
-21
-24
-22
-19
-21
-5
25
57
68
57
49
44
39
40
41
43
50
43
35
26
18
18
22
28
27
27
21
12
1
0
1
-3
-4
-9
-13
-9
-15
-19
-16
-23
-23
-24
-21
-20
-29
-31
-28
-30
-28
-28
-29
-32
-28
-27
-24
-14
23
55
59
63
55
40
33
29
36
49
56
54
46
38
25
21
27
24
23
20
14
9
7
5
-3
-4
-4
-11
-13
-14
-7
-11
-19
-15
-18
-26
-18
-20
-27
-25
-27
-23
-24
-32
-28
-36
-32
-32
-32
-31
-32
-25
-8
26
63
66
65
49
34
30
37
39
47
48
43
44
30
14
15
15
13
18
21
14
4
0
-1
1
-6
-14
-18
-20
-21
-16
-15
-17
-18
-26
-30
-29
-27
-21
-29
-33
-27
-30
-35
-31
-33
-35
-34
-21
5
45
63
67
60
44
25
27
26
36
44
44
37
27
15
16
20
23
23
21
19
12
4
-1
-8
-2
-6
-7
-8
-4
-9
-13
-11
-15
-21
-19
-25
-18
-25
-21
-23
-25
-25
-29
-33
-32
-20
11
59
73
70
70
61
46
48
52
55
60
62
62
55
43
31
31
30
31
31
30
22
15
10
10
7
0
-4
-4
-14
-17
-12
-16
-20
-19
-16
-19
-29
-33
-25
-27
-35
-43
-42
-37
-39
-33
-34
-44
-34
-31
-17
24
57
71
77
61
52
49
52
60
70
71
69
70
58
44
39
42
42
40
42
39
26
20
14
13
9
0
-5
-7
-12
-14
-14
-5
-12
-25
-29
-23
-22
-33
-35
-35
-39
-42
-42
-39
-44
-52
-53
-44
-46
-53
-55
-46
-37
-1
46
67
73
73
67
52
49
49
63
67
70
72
65
47
41
44
42
45
41
41
36
23
10
4
4
0
-4
-11
-12
-13
-19
-25
-28
-24
-34
-41
-40
-43
-42
-40
-43
-48
-58
-56
-54
-54
-58
-61
-60
-49
-25
16
60
77
73
53
52
49
46
58
58
61
64
49
40
37
31
30
34
38
37
26
14
8
4
-3
-5
-10
-8
-17
-20
-19
-26
-31
-32
-34
-38
-41
-48
-43
-44
-46
-48
-48
-46
-25
14
55
81
84
79
69
62
71
75
75
89
89
85
69
52
36
32
37
42
39
43
34
22
5
-1
-2
-4
-9
-19
-26
-28
-32
-41
-40
-46
-56
-54
-52
-59
-58
-62
-68
-70
-73
-73
-54
-9
35
72
91
82
79
69
75
86
87
93
101
98
81
62
53
44
41
46
41
37
24
12
3
-1
-14
-19
-27
-38
-46
-46
-51
-60
-65
-65
-67
-72
-74
-81
-87
-81
-81
-83
-88
-91
-87
-92
-91
-68
-25
29
68
86
84
75
70
73
75
84
89
80
79
68
42
34
33
37
30
28
22
10
0
-14
-26
-31
-41
-44
-52
-54
-56
-63
-73
-78
-86
-87
-82
-82
-86
-89
-90
-87
-88
-90
-91
-92
-89
-87
-59
-11
39
66
76
76
70
70
63
66
75
90
85
66
51
41
34
22
27
31
25
15
0
-8
-18
-27
-34
-44
-40
-42
-54
-62
-62
-74
-76
-70
-75
-80
-71
-70
-77
-82
-90
-69
-26
18
54
75
74
63
68
64
62
80
88
79
72
51
33
28
20
14
21
19
9
-3
-8
-22
-32
-39
-39
-45
-52
-64
-64
-62
-68
-70
-69
-76
-81
-72
-71
-71
-76
-82
-85
-84
-86
-85
-89
-54
-4
42
71
74
71
64
64
64
61
72
81
74
60
42
37
36
28
25
27
21
16
5
-9
-15
-18
-21
-36
-33
-39
-45
-43
-41
-48
-47
-51
-58
-60
-61
-67
-65
-65
-67
-68
-68
-74
-73
-74
-67
-25
28
48
60
58
46
38
32
39
41
55
51
49
31
18
16
22
18
19
18
13
9
-4
-13
-15
-22
-26
-25
-29
-43
-37
-36
-42
-37
-32
-36
-43
-46
-48
-51
-47
-52
-54
-45
-17
23
58
74
71
61
50
50
60
60
66
76
65
51
40
18
16
22
21
19
10
2
0
-2
-7
-13
-20
-19
-26
-28
-29
-38
-40
-39
-41
-45
-46
-49
-49
-49
-52
-48
-47
-52
-47
-44
-48
-54
-46
-36
-14
28
70
71
67
62
58
54
55
63
65
70
67
55
40
34
26
30
29
24
24
10
10
6
-1
-4
-14
-13
-11
-17
-13
-22
-25
-20
-27
-34
-33
-33
-31
-36
-39
-40
-43
-42
-45
-45
-43
-42
-38
-34
-32
-37
-35
-27
-28
-13
26
65
80
82
68
50
52
61
63
72
73
71
63
49
28
28
31
40
39
29
23
17
20
14
0
-3
-1
-2
-8
-10
-19
-23
-21
-17
-26
-24
-25
-30
-34
-30
-35
-31
-32
-34
-31
-37
-35
-37
-34
-31
-39
-38
-35
-19
22
61
76
71
57
39
36
45
42
51
57
52
43
30
21
25
21
21
20
25
22
12
1
-4
-9
-16
-11
-13
-20
-22
-17
-20
-18
-18
-24
-25
-25
-29
-27
-30
-28
-28
-30
-28
-29
-31
-29
-35
-24
-2
32
64
64
56
45
36
26
29
33
39
35
28
17
8
15
25
27
29
28
16
10
7
2
3
0
-4
-6
-5
-6
-18
-17
-13
-17
-14
-18
-21
-20
-23
-18
-17
-18
-22
-11
12
52
78
83
73
65
51
56
57
61
73
70
62
49
32
25
33
32
29
27
25
24
16
10
-1
-4
-9
-12
-13
-3
-8
-15
-19
-10
-15
-19
-21
-26
-26
-27
-34
-33
-36
-34
-26
-30
-32
-38
-19
20
57
81
79
71
62
58
60
67
75
80
82
74
63
47
42
42
35
38
43
41
31
29
18
2
-1
0
4
0
1
-10
-11
-19
-23
-28
-32
-31
-30
-37
-38
-33
-39
-42
-37
-47
-50
-45
-41
-47
-50
-45
-42
-47
-53
-53
-45
-18
28
69
84
80
71
61
54
58
60
71
81
76
67
55
41
38
48
47
46
38
35
28
18
7
-1
-4
-6
-9
-9
-13
-17
-21
-24
-26
-31
-35
-32
-36
-36
-42
-39
-43
-49
-45
-48
-56
-51
-53
-48
-47
-51
-57
-50
-48
-43
-14
27
53
64
60
51
45
43
44
47
50
60
60
49
35
27
27
27
24
20
29
23
13
0
-4
-8
-14
-6
-12
-17
-25
-23
-23
-30
-36
-42
-41
-42
-47
-46
-40
-41
-47
-52
-46
-47
-50
-60
-56
-47
-52
-57
-52
-53
-46
-27
6
42
64
64
51
41
37
31
40
52
52
44
41
24
14
14
14
24
21
22
22
11
8
-3
-10
-6
-6
-13
-23
-33
-23
-16
-26
-25
-23
-21
-23
-30
-30
-29
-35
-35
-37
-38
-38
-38
-40
-31
-19
20
56
72
72
66
54
43
43
46
54
62
52
38
28
21
25
22
22
31
37
23
15
8
-3
-13
-12
-8
-9
-18
-15
-18
-19
-22
-28
-32
-32
-34
-33
-31
-33
-35
-36
-41
-41
-33
-37
-36
-35
-39
-42
-34
-4
37
66
77
86
72
55
52
56
68
74
71
73
67
49
37
36
35
37
37
31
31
31
15
3
0
-3
-3
-8
-10
-14
-15
-16
-25
-26
-28
-28
-37
-35
-37
-40
-42
-43
-48
-45
-43
-46
-51
-41
-41
-37
-31
-34
-39
-43
-24
13
57
80
81
79
75
66
64
66
74
87
86
75
72
57
48
47
50
53
52
45
45
35
27
19
8
3
-5
-8
-7
-10
-11
-17
-19
-20
-27
-33
-36
-37
-34
-37
-40
-42
-49
-49
-45
-53
-53
-51
-50
-54
-53
-46
-46
-40
-6
40
79
96
97
91
82
74
77
79
91
98
94
87
79
62
59
63
63
65
57
48
35
28
20
17
9
0
0
-4
-13
-19
-22
-25
-28
-33
-37
-43
-47
-50
-53
-50
-53
-56
-60
-63
-57
-58
-52
-59
-64
-70
-56
-29
11
63
86
100
100
81
80
74
74
80
88
92
87
71
63
52
56
61
60
61
56
40
26
23
9
1
-9
-14
-20
-19
-20
-31
-41
-46
-47
-55
-56
-51
-56
-65
-69
-73
-73
-71
-72
-77
-74
-66
-30
26
80
115
125
130
116
110
112
116
126
136
137
132
110
88
79
70
72
64
54
54
38
25
13
-1
-15
-22
-34
-40
-48
-56
-65
-67
-75
-83
-91
-91
-91
-94
-97
-99
-95
-105
-107
-100
-101
-104
-109
-101
-81
-30
44
106
134
148
143
127
122
125
132
146
149
148
127
102
79
65
57
53
53
40
33
21
0
-24
-36
-44
-57
-72
-76
-85
-94
-95
-105
-103
-107
-112
-113
-116
-116
-120
-123
-121
-118
-119
-125
-125
-120
-116
-108
-69
5
80
140
154
150
144
134
126
134
143
149
145
136
112
79
52
43
47
46
37
21
1
-18
-29
-48
-62
-73
-89
-95
-94
-100
-107
-114
-118
-120
-123
-111
-111
-113
-106
-123
-130
-120
-124
-123
-121
-119
-117
-106
-84
-34
50
115
143
152
147
128
122
123
131
143
145
132
111
88
58
48
49
48
41
25
18
1
-23
-46
-50
-56
-68
-82
-89
-94
-92
-96
-101
-109
-105
-108
-104
-110
-114
-108
-115
-117
-103
-40
35
102
140
142
131
119
109
114
124
136
131
121
94
62
43
30
24
19
16
5
-6
-22
-40
-54
-62
-72
-87
-87
-94
-106
-105
-110
-108
-118
-112
-107
-106
-108
-114
-118
-115
-97
-50
16
71
113
123
109
102
91
93
94
96
102
95
68
41
27
15
13
9
3
-1
-11
-19
-36
-56
-60
-63
-83
-85
-87
-88
-97
-98
-99
-107
-105
-100
-102
-101
-108
-109
-103
-102
-101
-104
-99
-68
-25
29
78
92
87
68
57
46
50
56
58
54
39
28
21
12
5
14
12
0
-7
-13
-24
-26
-32
-44
-46
-50
-59
-54
-62
-68
-64
-62
-64
-58
-65
-73
-70
-66
-70
-73
-63
-48
-15
19
55
66
58
49
35
30
36
45
50
45
39
33
22
17
13
15
8
0
5
1
-11
-20
-26
-27
-32
-40
-38
-42
-42
-37
-42
-44
-44
-44
-42
-44
-42
-44
-42
-45
-48
-45
-39
-11
33
67
78
73
57
45
48
50
52
64
65
53
48
34
19
16
17
18
23
22
15
9
3
-2
-5
-14
-8
-15
-19
-25
-28
-25
-25
-27
-35
-35
-35
-35
-34
-31
-33
-39
-37
-38
-39
-38
-39
-37
-38
-34
-33
-29
-30
-29
-26
-29
-29
-15
32
69
87
85
66
49
39
46
58
64
65
64
58
51
36
22
28
28
31
36
31
21
13
13
5
8
1
-3
-5
-1
1
7
0
-1
-8
-23
-21
-16
-20
-23
-15
-16
-11
-13
-19
-19
-22
-24
-25
-27
-25
-26
-27
-26
-25
-29
-28
-9
22
56
79
84
69
53
35
33
45
50
56
59
50
43
29
21
27
28
21
24
29
26
23
22
13
6
9
4
0
-1
-4
-6
-12
-9
-16
-13
-10
-10
-9
-7
-12
-20
-18
-22
-14
-17
-22
-15
-16
-23
-22
-15
-21
-9
14
44
69
72
61
45
28
28
28
39
40
43
43
37
26
16
16
25
31
33
32
25
17
13
4
6
6
5
1
-8
-9
-2
-5
-6
-9
-9
-15
-12
-13
-8
-10
-12
-9
-14
-16
-18
-14
-2
38
67
79
73
65
59
47
52
53
58
66
58
53
45
33
32
34
34
34
31
29
29
20
17
12
12
14
6
5
-5
-7
-10
-11
-14
-12
-12
-21
-18
-18
-17
-30
-30
-25
-31
-32
-28
-23
-22
-33
-26
-19
7
50
76
80
78
66
58
58
60
73
78
76
70
59
52
44
41
36
39
39
40
39
30
24
17
11
2
0
4
4
2
1
-10
-18
-14
-17
-23
-21
-26
-25
-21
-28
-33
-34
-43
-45
-40
-39
-34
-38
-42
-42
-44
-35
-20
18
57
76
73
72
56
55
55
55
61
70
63
70
61
41
38
39
38
40
38
27
20
15
8
5
3
-1
-1
-6
-14
-18
-23
-26
-26
-35
-39
-39
-33
-33
-42
-40
-50
-47
-50
-50
-52
-55
-54
-50
-52
-53
-49
-36
-2
30
52
54
47
41
38
34
41
42
47
52
43
24
21
17
16
13
10
19
15
5
-1
-8
-9
-15
-18
-22
-22
-23
-23
-30
-27
-27
-32
-33
-36
-34
-37
-34
-42
-40
-45
-45
-49
-46
-28
13
48
68
67
58
51
43
41
44
52
63
57
46
31
27
32
28
29
26
26
14
14
3
-2
2
-4
-9
-15
-20
-24
-28
-27
-27
-30
-31
-40
-36
-43
-48
-46
-45
-38
-45
-53
-47
-49
-51
-46
-30
5
51
69
66
60
62
58
58
59
65
72
73
66
59
44
36
35
37
41
39
28
29
19
13
0
-6
-6
-8
-10
-20
-21
-27
-29
-29
-31
-39
-35
-36
-44
-43
-45
-52
-54
-54
-56
-51
-55
-56
-58
-53
-54
-60
-53
-36
1
38
68
69
62
56
56
49
55
69
70
74
69
60
42
37
40
38
33
36
31
24
17
6
3
-3
-10
-15
-15
-16
-22
-28
-29
-39
-39
-41
-51
-53
-54
-50
-50
-49
-56
-55
-57
-55
-58
-60
-54
-60
-61
-61
-57
-41
-10
39
62
57
52
34
35
32
37
40
47
51
42
25
15
9
12
23
19
17
9
6
-3
-10
-17
-20
-16
-22
-24
-24
-20
-20
-26
-38
-40
-38
-36
-43
-42
-43
-41
-42
-41
-38
-43
-51
-47
-26
10
49
66
63
54
55
52
49
52
58
63
59
52
40
26
20
21
25
28
23
13
3
-4
-9
-12
-16
-20
-21
-24
-25
-29
-31
-27
-31
-38
-43
-37
-38
-39
-42
-45
-44
-49
-47
-53
-50
-45
-52
-51
-51
-37
0
45
74
82
75
59
50
51
53
67
73
66
70
63
41
30
31
34
34
32
28
24
14
7
9
0
-11
-13
-12
-15
-24
-34
-34
-28
-36
-34
-39
-42
-39
-41
-45
-45
-50
-54
-57
-59
-52
-44
-55
-59
-59
-56
-47
-48
-38
5
55
81
87
75
69
59
52
55
69
73
69
66
61
44
35
37
42
41
38
31
24
20
5
2
-1
-13
-15
-16
-17
-17
-17
-25
-31
-32
-31
-34
-32
-40
-38
-39
-39
-37
-45
-40
-46
-49
-47
-41
-11
29
65
84
82
71
59
59
55
58
67
65
56
44
35
31
27
29
28
30
34
24
16
4
-9
-7
-12
-21
-26
-28
-25
-21
-28
-33
-36
-37
-37
-36
-40
-47
-52
-42
-44
-50
-57
-51
-48
-51
-50
-42
1
51
82
86
84
69
59
65
69
79
76
74
75
72
47
38
31
35
34
34
33
29
18
4
-3
-5
-15
-16
-23
-28
-31
-33
-37
-36
-40
-40
-44
-48
-45
-46
-56
-59
-58
-56
-59
-62
-62
-60
-66
-65
-63
-56
-59
-60
-56
-49
-11
47
74
75
69
63
59
54
59
67
76
76
74
64
53
35
29
34
38
39
29
28
16
15
7
2
-8
-7
-10
-12
-17
-19
-28
-33
-31
-29
-35
-41
-44
-47
-46
-51
-57
-58
-63
-52
-50
-51
-52
-50
-42
-46
-47
-56
-54
-50
-22
32
67
74
70
64
56
52
53
57
70
72
73
63
50
37
41
42
36
42
39
28
16
16
17
2
-3
0
-9
-11
-5
-19
-23
-18
-24
-26
-29
-38
-36
-37
-42
-42
-41
-41
-49
-49
-52
-50
-47
-53
-51
-32
11
55
80
83
72
63
48
45
52
65
64
63
61
50
36
29
32
37
42
34
33
27
17
9
2
-5
-7
-17
-13
-19
-16
-16
-24
-28
-28
-34
-33
-36
-40
-40
-37
-41
-46
-45
-42
-47
-45
-54
-56
-51
-39
-3
44
79
91
91
80
75
70
69
78
87
97
94
91
79
61
55
55
46
49
50
48
36
24
17
9
10
12
0
-7
-8
-17
-31
-32
-37
-44
-48
-48
-46
-51
-57
-58
-57
-53
-59
-57
-65
-63
-54
-54
-63
-70
-61
-64
-51
-17
38
88
105
108
99
82
67
76
88
93
100
93
87
71
57
53
49
47
43
47
43
31
23
10
-1
-9
-9
-15
-22
-25
-25
-34
-43
-49
-52
-61
-64
-61
-69
-68
-65
-67
-64
-64
-66
-74
-74
-77
-75
-75
-63
-33
10
75
107
104
105
96
85
84
85
102
105
102
92
72
58
59
57
61
56
52
47
38
23
14
-6
-14
-18
-32
-37
-39
-47
-51
-48
-53
-59
-67
-67
-64
-65
-69
-65
-72
-76
-73
-70
-74
-70
-67
-62
-27
28
92
133
150
143
138
127
132
136
148
160
154
146
134
108
86
82
84
77
69
60
49
31
12
5
-18
-31
-37
-43
-58
-61
-62
-76
-79
-79
-74
-84
-90
-104
-115
-117
-120
-117
-116
-109
-103
-103
-98
-73
-20
45
121
160
167
163
154
145
153
163
171
175
176
157
126
98
81
71
68
58
47
30
15
0
-15
-37
-53
-65
-76
-83
-87
-98
-104
-109
-113
-114
-118
-115
-115
-115
-114
-115
-120
-121
-119
-105
-58
15
100
147
159
158
145
138
144
152
166
162
153
123
93
64
40
33
27
17
2
-12
-33
-47
-55
-75
-91
-94
-107
-125
-123
-127
-127
-132
-131
-132
-132
-128
-125
-125
-131
-133
-88
-13
64
118
141
145
134
121
117
128
133
140
129
106
72
49
29
12
7
7
-3
-20
-41
-50
-70
-86
-101
-109
-115
-121
-128
-140
-133
-132
-137
-141
-144
-145
-136
-136
-132
-126
-131
-127
-129
-125
-118
-120
-86
-20
45
100
121
128
123
114
110
116
124
131
132
110
87
67
48
31
31
34
17
-2
-10
-27
-48
-53
-60
-73
-89
-104
-101
-103
-100
-105
-108
-110
-115
-112
-112
-113
-123
-128
-114
-118
-123
-121
-115
-109
-103
-99
-87
-31
26
51
61
56
48
44
33
42
51
58
63
54
27
12
2
6
13
13
4
-10
-10
-16
-25
-34
-38
-39
-47
-56
-52
-48
-54
-60
-58
-60
-54
-57
-59
-63
-65
-62
-65
-61
-60
-55
-54
-51
-55
-61
-58
-33
13
53
75
66
51
44
38
34
40
41
46
46
40
26
12
8
6
18
18
15
5
0
-5
-7
-11
-17
-23
-18
-22
-22
-24
-27
-28
-33
-22
-21
-17
-26
-24
-24
-26
-31
-28
-30
-32
-22
16
51
71
75
57
47
34
32
34
40
41
33
20
11
7
20
19
18
20
17
11
4
0
-3
-5
-3
-13
-14
-4
-9
-16
-20
-17
-15
-13
-6
-10
-3
-12
-13
-4
-10
2
35
67
75
75
60
46
35
34
41
50
54
50
37
22
15
20
25
25
29
19
8
16
15
4
8
0
-2
-7
-10
-5
-10
-9
-1
-5
-3
-8
-9
-12
-15
-20
-17
-18
-8
4
38
71
87
79
67
54
50
49
50
58
65
59
57
37
31
22
23
23
34
33
29
17
11
3
-2
4
-2
-11
-2
-6
-5
-9
-7
-6
-12
-14
-14
-23
-27
-23
-28
-16
-21
-26
-23
-23
-7
25
57
75
67
58
48
44
49
52
60
55
59
58
36
25
27
24
27
31
29
25
19
8
-1
-4
-6
-13
-15
-10
-12
-14
-10
-16
-22
-25
-25
-24
-11
-19
-35
-26
-27
-13
19
53
69
66
61
46
36
41
53
61
57
60
48
34
19
21
30
30
31
25
15
4
-5
-11
-8
-3
-17
-13
-11
-16
-21
-20
-25
-20
-28
-32
-27
-25
-24
-21
-32
-34
-29
-32
-25
-5
32
55
71
62
53
59
51
50
58
65
71
65
58
45
28
32
31
39
30
27
22
13
7
0
-3
-6
-12
-9
-12
-17
-20
-29
-31
-21
-30
-36
-36
-35
-41
-35
-34
-38
-37
-39
-41
-42
-41
-41
-31
3
47
72
75
73
67
62
60
69
73
76
75
72
65
48
42
43
44
47
49
42
30
26
22
6
8
5
-4
-4
-5
-12
-14
-19
-21
-23
-28
-34
-31
-30
-34
-30
-33
-36
-37
-36
-28
-34
-33
-36
-38
-31
-20
20
66
83
83
79
77
65
67
73
80
84
85
75
62
53
49
50
53
50
50
36
22
19
16
6
2
2
0
-2
-11
-14
-15
-17
-18
-26
-28
-28
-29
-31
-37
-37
-43
-45
-43
-40
-20
24
67
99
104
101
88
77
77
77
90
96
102
86
72
58
48
48
48
54
46
33
22
11
7
-4
-21
-18
-23
-34
-39
-42
-43
-50
-50
-50
-52
-66
-74
-65
-66
-67
-71
-71
-73
-73
-74
-75
-70
-57
-28
23
74
95
97
83
82
81
88
96
106
103
100
89
70
59
53
49
48
42
46
29
18
3
-1
-2
-17
-27
-29
-37
-46
-50
-54
-53
-57
-61
-63
-71
-78
-73
-72
-80
-75
-78
-79
-77
-79
-78
-75
-86
-81
-72
-43
-3
47
87
107
107
98
94
95
94
102
114
115
101
81
69
59
49
49
49
45
44
39
20
0
-7
-14
-22
-35
-42
-51
-55
-62
-70
-76
-82
-72
-69
-76
-90
-87
-94
-95
-97
-98
-93
-90
-95
-89
-87
-87
-72
-27
21
77
106
108
102
100
87
91
96
101
101
94
81
58
52
57
49
46
46
41
24
12
0
-22
-34
-45
-47
-49
-52
-62
-69
-70
-80
-83
-81
-84
-79
-81
-88
-92
-85
-83
-82
-84
-61
-18
38
96
117
121
110
95
98
98
101
118
112
108
86
62
46
40
39
40
23
14
8
-9
-25
-44
-52
-58
-70
-79
-82
-87
-88
-86
-96
-103
-103
-103
-95
-102
-106
-102
-100
-98
-98
-95
-91
-55
14
81
119
135
131
119
117
122
136
147
155
155
138
110
85
64
50
44
34
27
14
7
-18
-35
-41
-54
-75
-78
-84
-95
-97
-90
-88
-98
-102
-105
-101
-103
-107
-102
-100
-105
-111
-107
-110
-110
-92
-33
46
106
134
148
151
140
132
134
145
160
161
148
123
91
72
60
52
46
43
26
6
-15
-27
-39
-55
-65
-78
-85
-90
-88
-96
-106
-106
-113
-117
-120
-120
-112
-102
-108
-113
-107
-100
-105
-103
-104
-105
-93
-60
2
72
132
154
152
148
134
122
130
139
151
144
121
96
68
51
48
46
38
26
16
0
-20
-26
-39
-55
-75
-78
-81
-84
-89
-92
-99
-97
-94
-101
-90
-92
-88
-91
-93
-98
-101
-96
-77
-43
16
81
130
150
148
133
120
118
120
132
139
131
108
82
59
44
33
35
31
20
9
-12
-29
-35
-49
-58
-74
-80
-91
-99
-96
-94
-102
-104
-94
-104
-98
-102
-105
-104
-101
-102
-98
-96
-105
-105
-94
-65
-3
65
124
151
155
146
141
139
143
157
171
173
152
128
100
73
60
55
51
47
37
17
0
-15
-41
-45
-52
-66
-72
-79
-88
-90
-94
-99
-100
-96
-96
-102
-104
-94
-98
-94
-96
-92
-88
-92
-91
-91
-87
-47
19
94
140
158
157
149
142
149
152
156
159
165
150
124
97
75
62
54
49
38
26
12
-8
-26
-30
-41
-54
-62
-68
-77
-79
-84
-90
-87
-87
-92
-94
-89
-90
-97
-96
-94
-95
-97
-94
-100
-98
-87
-85
-60
-3
60
114
141
135
122
115
108
118
129
131
127
117
88
60
48
40
45
50
44
28
14
8
-3
-28
-37
-41
-48
-48
-51
-58
-75
-76
-80
-81
-77
-85
-92
-90
-86
-88
-80
-84
-85
-78
-44
12
71
111
129
119
111
100
104
117
126
132
126
104
84
61
45
47
37
37
34
25
3
-12
-25
-32
-44
-51
-56
-63
-64
-66
-70
-81
-80
-78
-82
-95
-95
-94
-96
-95
-92
-92
-86
-82
-81
-85
-87
-80
-46
14
75
115
123
120
109
104
110
112
126
134
129
118
97
80
61
57
58
55
45
28
24
10
-2
-10
-23
-32
-40
-50
-60
-58
-60
-53
-69
-70
-68
-68
-69
-76
-77
-75
-83
-83
-78
-73
-72
-83
-87
-77
-82
-79
-65
-22
36
83
113
124
116
105
102
102
107
119
120
120
106
83
69
49
55
56
53
49
36
30
18
4
-4
-20
-31
-30
-31
-36
-48
-52
-49
-55
-64
-64
-66
-73
-74
-69
-79
-75
-73
-67
-67
-74
-74
-72
-50
1
56
95
113
107
89
81
71
74
82
85
85
80
58
47
51
47
40
38
29
27
16
11
-1
-18
-17
-25
-37
-38
-46
-44
-45
-54
-58
-51
-55
-59
-58
-64
-65
-70
-69
-66
-71
-66
-50
0
58
92
103
101
91
90
85
99
104
114
111
103
88
70
58
39
45
42
45
40
26
16
-1
-19
-21
-27
-33
-35
-44
-45
-56
-59
-56
-64
-67
-65
-66
-76
-75
-73
-82
-75
-74
-77
-82
-79
-74
-71
-48
7
62
93
103
99
92
85
90
102
104
118
114
109
96
78
62
62
53
54
52
45
41
28
2
-4
-18
-30
-33
-41
-43
-40
-47
-56
-62
-71
-72
-76
-74
-77
-78
-86
-85
-80
-85
-83
-73
-75
-85
-78
-70
-46
4
54
91
104
104
89
85
77
93
98
106
102
99
88
69
60
56
59
63
54
50
39
29
14
3
-12
-10
-20
-30
-41
-43
-53
-59
-61
-60
-60
-65
-74
-67
-74
-74
-77
-78
-76
-82
-75
-45
3
64
92
102
108
95
86
82
90
100
111
113
101
82
72
59
45
50
47
37
29
16
4
-8
-13
-26
-42
-41
-55
-64
-65
-69
-71
-78
-84
-86
-87
-86
-86
-94
-89
-87
-90
-99
-96
-92
-79
-78
-28
21
67
90
100
97
89
91
92
101
111
116
111
104
80
65
57
44
49
43
34
31
17
4
-7
-19
-18
-37
-53
-50
-49
-60
-70
-75
-79
-83
-77
-78
-87
-80
-84
-89
-87
-88
-84
-72
-39
8
52
84
96
92
82
84
91
87
90
99
94
78
58
45
39
34
28
26
23
12
1
-8
-14
-26
-36
-45
-50
-52
-60
-67
-69
-71
-78
-80
-76
-81
-89
-82
-78
-79
-58
-8
37
69
72
64
55
56
61
74
80
79
72
53
31
30
21
14
18
11
-3
-8
-10
-18
-28
-37
-49
-48
-45
-56
-63
-60
-69
-74
-78
-79
-84
-79
-76
-81
-74
-79
-89
-81
-83
-64
-23
14
49
55
48
49
47
45
51
59
66
52
49
34
23
26
16
12
13
10
6
-3
-10
-17
-20
-24
-27
-29
-31
-40
-41
-42
-50
-49
-50
-47
-47
-46
-48
-45
-55
-58
-59
-50
-46
-26
11
45
58
54
47
44
37
38
45
50
47
41
36
27
21
15
24
26
20
14
11
2
0
-1
-8
-11
-10
-13
-17
-22
-21
-26
-29
-31
-30
-32
-37
-40
-38
-41
-28
-4
21
57
78
73
66
60
61
58
69
73
77
70
54
45
39
31
33
33
28
29
26
15
13
2
0
3
-4
-8
-13
-13
-15
-26
-32
-27
-29
-31
-33
-39
-42
-42
-40
-39
-47
-45
-41
-16
19
55
69
72
63
63
56
64
72
76
81
70
57
38
36
38
36
33
29
23
18
17
2
-6
-5
-19
-24
-19
-17
-25
-37
-34
-36
-36
-35
-33
-41
-42
-41
-45
-49
-56
-49
-59
-60
-62
-51
-56
-55
-46
-22
21
52
57
55
44
41
40
46
48
50
49
53
47
36
25
23
29
31
28
21
14
5
2
-3
-3
-9
-13
-23
-21
-19
-25
-29
-30
-35
-38
-37
-41
-45
-40
-42
-46
-46
-45
-48
-48
-41
-51
-47
-47
-56
-43
-18
16
46
57
53
45
35
27
33
44
45
48
47
35
24
16
26
21
16
18
14
10
6
3
-10
-6
-12
-16
-10
-12
-16
-22
-21
-20
-17
-21
-23
-27
-24
-21
-24
-28
-28
-32
-32
-28
-34
-25
-12
21
50
64
56
49
46
33
41
42
47
48
51
42
27
18
17
23
30
23
17
13
9
5
2
-2
-16
-14
-8
-9
-13
-17
-15
-18
-22
-23
-26
-22
-23
-26
-24
-31
-30
-31
-34
-36
-33
-11
27
62
70
71
64
51
42
47
58
60
66
58
51
42
30
32
29
29
33
31
25
21
16
7
3
1
-1
-11
-12
-13
-16
-18
-21
-19
-26
-24
-23
-27
-32
-33
-33
-33
-37
-36
-35
-23
-19
16
47
61
60
52
44
42
45
56
56
67
69
56
41
34
31
33
32
33
35
31
18
10
1
-6
-2
-6
-16
-19
-17
-21
-31
-20
-26
-30
-27
-31
-38
-40
-40
-40
-38
-40
-51
-50
-38
-15
21
50
70
69
58
62
50
51
59
61
63
64
48
37
32
37
35
29
28
24
23
22
21
13
2
4
0
-2
-6
-16
-20
-24
-24
-23
-21
-25
-21
-28
-38
-41
-36
-41
-27
9
43
61
73
76
65
62
66
71
75
81
79
69
58
43
37
34
33
41
41
34
20
10
12
2
-6
-10
-16
-20
-24
-24
-30
-33
-34
-45
-48
-46
-53
-55
-52
-47
-54
-55
-55
-56
-53
-25
9
36
51
53
50
49
49
49
48
63
69
59
50
36
28
25
28
28
30
20
13
2
-4
-6
-4
-13
-20
-32
-36
-37
-43
-44
-54
-58
-58
-51
-57
-66
-64
-60
-63
-65
-72
-68
-63
-67
-68
-57
-26
19
43
41
42
43
37
37
44
56
57
57
54
42
19
18
24
21
22
15
6
0
0
-9
-13
-21
-27
-29
-26
-28
-39
-45
-44
-48
-46
-48
-47
-43
-52
-63
-63
-62
-57
-53
-56
-60
-67
-57
-63
-58
-53
-27
12
41
51
51
46
45
39
41
51
57
60
58
43
28
22
26
30
28
25
26
22
10
2
-6
-8
-7
-9
-18
-21
-27
-24
-19
-31
-37
-38
-38
-38
-38
-42
-46
-50
-51
-47
-47
-49
-47
-45
-51
-46
-29
5
43
56
57
49
46
37
47
54
50
57
58
52
44
37
24
27
32
29
24
24
16
6
3
4
-1
-8
-11
-13
-22
-32
-35
-29
-31
-36
-34
-37
-44
-40
-39
-39
-47
-41
-46
-52
-46
-35
1
35
57
55
51
45
40
48
51
51
58
59
50
37
33
30
26
30
27
24
21
10
-1
3
-1
-8
-13
-13
-13
-11
-15
-22
-26
-28
-34
-28
-23
-39
-37
-36
-29
-38
-34
0
42
65
63
66
67
58
57
59
64
75
75
70
54
43
35
37
40
43
40
30
24
14
7
3
-2
-8
-13
-20
-19
-26
-34
-35
-31
-34
-37
-43
-39
-41
-50
-46
-26
5
43
70
76
71
58
60
67
74
82
77
77
74
61
44
38
46
48
44
40
19
14
3
0
-1
-14
-16
-22
-25
-34
-29
-38
-42
-45
-51
-50
-54
-57
-60
-63
-55
-63
-65
-62
-61
-62
-58
-34
10
54
76
76
61
63
62
62
79
85
88
92
80
70
56
48
49
49
47
37
30
20
12
9
0
-9
-12
-28
-21
-26
-36
-44
-50
-53
-57
-59
-66
-65
-69
-64
-67
-66
-73
-72
-73
-73
-80
-80
-78
-72
-58
-12
35
65
70
62
53
51
56
58
70
77
75
64
47
38
31
31
35
38
25
21
22
11
1
-9
-16
-20
-23
-31
-36
-39
-45
-45
-46
-48
-53
-54
-63
-60
-66
-65
-68
-65
-67
-61
-67
-47
-18
30
60
72
74
73
66
57
55
67
69
69
53
37
25
24
24
27
27
24
11
7
-1
-8
-11
-22
-29
-25
-30
-48
-45
-49
-52
-56
-57
-62
-63
-59
-63
-70
-76
-71
-74
-70
-66
-69
-71
-67
-41
6
49
74
78
69
64
71
74
86
87
93
94
85
70
53
42
43
42
37
37
32
20
1
-3
-12
-19
-16
-24
-31
-36
-45
-46
-51
-45
-54
-58
-58
-56
-55
-65
-70
-70
-69
-73
-73
-73
-72
-75
-79
-67
-56
-29
19
61
83
88
83
87
76
86
90
96
106
103
89
76
57
53
53
57
48
40
36
29
15
0
-2
2
-5
-10
-27
-31
-36
-39
-37
-46
-50
-49
-57
-60
-58
-63
-61
-67
-68
-60
-72
-75
-70
-73
-69
-64
-59
-63
-48
-3
47
84
95
97
97
92
90
96
107
116
118
111
104
90
68
61
55
60
62
59
43
33
15
4
6
4
-6
-24
-26
-29
-40
-38
-45
-53
-51
-53
-60
-54
-60
-63
-67
-66
-72
-73
-70
-64
-58
-60
-63
-59
-52
-22
36
82
105
113
112
103
97
94
105
107
110
107
93
81
65
60
61
56
52
47
38
30
14
3
-10
-19
-16
-24
-28
-32
-40
-44
-48
-50
-52
-61
-62
-62
-64
-68
-67
-68
-68
-68
-58
-20
38
93
128
141
135
125
127
126
130
137
146
147
121
102
78
61
54
52
41
37
31
16
0
-7
-19
-31
-46
-52
-59
-57
-61
-73
-79
-78
-82
-85
-91
-90
-95
-98
-103
-98
-95
-99
-102
-90
-89
-89
-80
-29
38
103
143
160
155
145
138
138
142
153
158
142
133
109
83
72
55
54
52
42
30
11
-3
-19
-32
-40
-51
-55
-68
-81
-78
-86
-92
-97
-95
-99
-97
-101
-108
-107
-105
-105
-110
-104
-107
-110
-115
-112
-105
-108
-111
-101
-87
-39
24
85
131
149
143
134
116
125
131
136
138
135
122
102
83
67
59
47
41
33
27
19
4
-19
-35
-47
-58
-62
-65
-69
-91
-95
-90
-96
-105
-105
-98
-102
-107
-108
-104
-100
-94
-103
-107
-106
-109
-106
-103
-101
-90
-51
14
77
108
125
117
103
92
92
93
106
109
103
86
71
55
48
45
46
42
35
29
14
0
-19
-26
-25
-40
-53
-56
-64
-69
-66
-63
-69
-69
-70
-81
-70
-75
-85
-80
-80
-86
-77
-55
-3
52
92
119
118
110
105
95
95
102
109
114
102
76
59
52
49
38
44
39
33
20
3
-7
-17
-33
-38
-42
-50
-55
-68
-64
-70
-74
-82
-85
-84
-83
-86
-92
-89
-90
-90
-91
-86
-81
-89
-53
-3
64
111
124
126
123
119
118
120
127
138
144
138
116
95
77
66
66
61
51
39
26
13
3
-10
-11
-27
-42
-47
-51
-59
-74
-72
-76
-80
-80
-85
-84
-82
-84
-84
-94
-98
-91
-97
-96
-94
-92
-90
-89
-76
-30
33
85
121
131
132
120
116
126
139
148
146
143
131
109
93
76
74
67
61
57
44
29
15
-4
-17
-28
-28
-39
-42
-52
-65
-67
-74
-74
-78
-85
-81
-84
-93
-96
-94
-93
-94
-103
-92
-93
-94
-94
-89
-88
-79
-55
-5
63
107
130
138
132
121
114
119
122
132
140
130
107
84
72
59
64
63
58
45
33
20
4
-4
-16
-27
-39
-45
-55
-64
-68
-67
-82
-83
-75
-86
-84
-84
-90
-88
-87
-88
-89
-85
-83
-68
-23
38
95
123
125
115
106
101
100
106
121
117
102
82
61
49
44
40
41
32
28
15
-7
-20
-28
-35
-42
-49
-54
-61
-68
-74
-79
-76
-86
-90
-90
-88
-87
-93
-88
-91
-96
-97
-88
-53
12
78
126
145
147
137
133
133
147
157
158
156
144
117
103
79
61
59
53
45
41
23
1
-10
-30
-42
-45
-60
-64
-73
-86
-97
-99
-100
-99
-97
-98
-108
-108
-110
-111
-108
-109
-111
-109
-100
-102
-98
-65
-11
57
115
141
151
144
142
136
144
160
166
169
160
130
102
78
61
58
52
47
42
22
2
-13
-27
-36
-53
-64
-69
-74
-87
-88
-88
-94
-100
-103
-107
-109
-114
-112
-118
-120
-117
-114
-114
-112
-113
-109
-106
-99
-82
-29
37
104
141
155
137
131
133
133
142
155
150
143
125
104
72
47
44
51
51
40
23
9
-2
-19
-35
-45
-57
-72
-76
-78
-86
-83
-84
-90
-101
-97
-101
-103
-107
-107
-103
-102
-100
-105
-98
-90
-79
-36
31
89
115
116
118
110
99
96
100
107
109
96
79
64
44
35
38
38
31
23
11
0
-17
-28
-31
-47
-50
-65
-70
-77
-75
-77
-86
-86
-83
-86
-89
-92
-91
-93
-93
-91
-96
-100
-87
-73
-37
23
88
122
134
127
126
115
122
125
130
141
140
125
101
81
58
55
46
41
44
35
20
10
0
-12
-25
-33
-43
-53
-55
-66
-68
-80
-87
-84
-86
-89
-91
-91
-92
-86
-85
-91
-96
-81
-51
6
63
103
121
123
116
116
117
115
128
130
133
124
96
78
62
47
46
48
41
29
14
0
-12
-21
-36
-43
-47
-63
-67
-71
-75
-82
-81
-86
-91
-90
-96
-94
-96
-99
-94
-73
-33
33
78
102
114
100
92
92
96
103
114
115
107
88
59
39
30
29
22
18
14
4
-8
-22
-38
-42
-52
-67
-76
-81
-88
-78
-82
-92
-90
-98
-98
-100
-101
-99
-99
-87
-46
8
61
94
100
97
88
88
96
97
99
110
103
80
66
52
34
32
32
22
15
5
-9
-24
-33
-42
-48
-60
-72
-79
-81
-82
-81
-83
-89
-87
-86
-91
-97
-90
-93
-102
-98
-93
-89
-79
-47
12
66
93
105
98
91
91
88
85
100
100
96
78
67
55
48
45
46
37
32
25
10
-8
-14
-18
-40
-49
-47
-54
-63
-65
-67
-73
-81
-78
-67
-73
-72
-81
-84
-84
-77
-51
0
50
82
91
92
87
80
78
86
83
94
90
70
58
42
39
40
41
37
32
17
1
-4
-14
-16
-37
-48
-50
-51
-52
-45
-48
-55
-66
-67
-69
-69
-72
-80
-76
-50
-5
46
88
110
111
108
98
93
98
107
116
114
104
79
66
47
43
44
42
23
18
15
2
-22
-30
-35
-53
-51
-59
-67
-72
-76
-79
-73
-76
-79
-89
-89
-89
-93
-96
-99
-96
-88
-88
-61
-5
55
99
109
113
103
98
101
119
124
127
131
116
102
79
50
47
49
38
30
27
8
-4
-13
-27
-39
-49
-58
-70
-72
-77
-83
-81
-78
-85
-91
-96
-98
-97
-97
-98
-102
-101
-97
-101
-97
-100
-94
-87
-84
-90
-95
-93
-86
-76
-53
-7
39
64
68
62
50
48
48
59
70
75
75
74
58
31
29
24
24
27
23
17
15
5
-4
-10
-14
-23
-32
-26
-29
-33
-37
-40
-42
-45
-51
-55
-53
-57
-59
-58
-58
-51
-51
-59
-59
-58
-59
-58
-57
-52
-56
-53
-53
-48
-28
9
51
74
72
65
53
36
47
46
49
62
62
47
33
25
20
22
18
18
25
20
13
3
-6
-10
-19
-11
-12
-15
-19
-22
-19
-18
-24
-24
-34
-29
-27
-31
-31
-31
-33
-35
-31
-32
-32
-26
-31
-33
-43
-40
-38
-10
35
60
73
71
51
29
27
36
39
43
48
45
27
17
16
15
20
12
15
21
18
12
11
2
-6
-2
-10
-9
-5
-8
-6
-16
-15
-13
-11
-12
-18
-13
-16
-18
-14
-9
-14
-13
-12
-15
-11
11
43
70
79
79
68
59
52
45
44
51
58
54
46
35
25
20
19
24
23
24
24
13
10
5
1
9
5
-3
-8
0
-3
-15
-10
-12
-13
-14
-17
-19
-15
-13
-14
-15
-19
-19
-15
-16
-18
-19
-20
-20
-15
9
56
76
86
74
59
51
47
51
48
57
60
58
50
31
25
22
26
22
24
28
29
16
3
0
6
9
-1
-4
-2
-5
-14
-11
-10
-13
-15
-17
-18
-23
-23
-23
-17
-16
-20
-19
-17
-21
-18
-17
-17
-22
-17
-18
-25
-18
-5
33
65
84
88
71
59
45
43
49
54
55
61
66
54
35
32
32
33
37
34
30
20
19
12
1
-1
1
3
0
-6
-4
-10
-14
-18
-19
-7
-7
-16
-21
-25
-21
-17
-15
-23
-27
-29
-28
-30
-23
-22
-29
-26
-26
-28
-18
19
69
84
87
80
72
59
53
51
57
65
66
64
51
36
39
31
34
37
37
31
28
26
23
14
7
7
2
0
-8
-7
-8
-8
-13
-18
-17
-8
-13
-17
-20
-17
-21
-18
-18
-24
-29
-23
-27
-23
-10
37
75
98
98
86
77
72
73
74
77
83
83
76
68
51
43
47
49
48
44
39
37
24
17
17
10
8
10
4
-6
-10
-13
-20
-25
-25
-23
-23
-26
-35
-33
-33
-35
-35
-35
-42
-44
-43
-42
-44
-42
-34
4
58
89
99
94
93
85
81
84
83
96
101
100
92
74
60
55
55
61
57
50
42
39
20
9
10
2
-1
-4
-15
-20
-27
-34
-34
-37
-41
-50
-52
-59
-58
-57
-59
-64
-66
-67
-61
-67
-73
-70
-70
-69
-68
-72
-64
-37
13
67
90
98
91
90
83
79
87
93
97
94
83
82
68
56
60
63
55
50
42
28
25
14
5
-5
-18
-25
-31
-37
-37
-43
-48
-49
-57
-59
-60
-61
-63
-69
-82
-81
-74
-76
-81
-79
-78
-73
-74
-75
-72
-72
-73
-62
-28
27
66
95
93
81
71
63
62
72
72
83
82
68
51
42
44
50
49
41
36
30
14
9
1
-13
-20
-25
-25
-29
-41
-41
-42
-47
-56
-57
-65
-69
-65
-72
-69
-63
-67
-64
-74
-74
-77
-68
-54
-16
37
85
100
111
97
77
76
81
87
90
96
87
74
62
54
48
42
38
34
34
26
10
0
-7
-16
-33
-34
-38
-48
-55
-64
-70
-71
-65
-75
-75
-77
-85
-83
-82
-82
-86
-93
-91
-91
-95
-92
-83
-86
-85
-73
-31
29
81
109
119
112
101
93
95
103
112
119
112
112
90
79
68
50
51
50
43
28
24
15
0
-8
-19
-33
-33
-32
-46
-50
-61
-66
-64
-69
-70
-73
-78
-80
-88
-90
-95
-89
-87
-92
-94
-92
-87
-86
-85
-86
-78
-75
-77
-59
-19
43
92
120
123
113
109
98
104
103
122
128
123
116
102
81
75
65
63
67
57
47
36
19
2
-5
-19
-31
-37
-47
-60
-68
-61
-65
-65
-67
-66
-77
-74
-83
-85
-85
-88
-84
-86
-76
-81
-79
-77
-85
-84
-85
-81
-66
-20
34
88
123
122
106
102
93
86
91
103
115
111
96
71
63
52
54
52
47
39
32
20
11
-1
-13
-24
-37
-34
-45
-51
-53
-59
-61
-62
-68
-63
-72
-81
-74
-82
-85
-81
-89
-88
-81
-83
-78
-74
-65
-33
24
74
101
113
110
108
105
99
107
116
128
120
112
93
79
66
55
44
43
39
31
15
3
-8
-25
-28
-34
-46
-52
-46
-59
-67
-71
-74
-86
-84
-84
-86
-87
-79
-90
-89
-95
-94
-88
-92
-88
-90
-84
-83
-80
-84
-84
-75
-64
-19
30
82
114
122
118
114
103
113
121
121
124
128
121
100
75
66
64
61
53
54
45
29
14
2
-12
-22
-28
-38
-43
-48
-49
-60
-61
-61
-64
-64
-72
-75
-78
-75
-72
-81
-79
-81
-82
-83
-79
-80
-81
-81
-81
-75
-75
-68
-36
16
78
119
137
134
126
120
116
119
130
135
136
131
116
96
78
65
60
64
54
45
27
17
11
0
-12
-25
-33
-42
-49
-52
-60
-66
-71
-74
-71
-72
-67
-69
-77
-77
-75
-89
-90
-88
-89
-83
-75
-76
-79
-75
-73
-70
-61
-34
23
87
133
143
147
141
125
122
128
139
147
141
136
113
91
75
68
65
64
60
46
30
18
4
-4
-22
-33
-33
-36
-47
-54
-65
-66
-73
-71
-72
-76
-76
-82
-82
-77
-72
-73
-69
-76
-76
-75
-68
-64
-34
24
88
129
141
140
135
117
113
116
116
123
127
101
76
63
59
45
47
38
35
20
-4
-14
-24
-34
-53
-65
-70
-76
-67
-74
-82
-83
-82
-92
-91
-89
-86
-86
-87
-88
-96
-98
-92
-83
-85
-92
-86
-62
-1
60
117
142
149
140
133
127
136
139
152
161
152
132
104
79
60
48
37
39
28
8
0
-15
-30
-46
-51
-56
-64
-69
-81
-92
-90
-90
-90
-85
-90
-93
-90
-96
-93
-94
-99
-105
-97
-104
-95
-92
-96
-90
-84
-78
-58
-17
44
98
128
129
123
115
116
129
140
152
153
150
135
114
81
73
69
62
51
43
33
7
-5
-20
-27
-43
-51
-53
-55
-63
-73
-71
-81
-84
-90
-94
-90
-88
-92
-89
-90
-94
-92
-86
-92
-86
-86
-80
-61
-14
43
88
113
117
113
112
113
122
127
141
149
139
119
99
79
62
58
49
43
36
16
2
-14
-25
-37
-46
-56
-68
-70
-73
-69
-81
-81
-84
-89
-98
-100
-93
-88
-90
-95
-94
-99
-96
-79
-44
10
56
81
93
92
85
91
95
100
113
113
102
84
65
45
38
36
29
20
6
2
-1
-23
-35
-45
-63
-61
-61
-69
-71
-73
-84
-86
-89
-86
-79
-83
-88
-86
-79
-85
-88
-84
-86
-73
-33
14
57
75
74
74
66
51
57
71
75
70
63
48
36
24
18
28
28
20
15
4
-11
-24
-36
-40
-47
-59
-56
-59
-58
-61
-67
-65
-67
-67
-71
-69
-72
-72
-69
-70
-66
-36
20
61
85
93
86
82
75
81
93
99
106
105
87
74
58
47
43
39
31
29
21
4
-1
-11
-22
-31
-37
-38
-41
-46
-54
-59
-60
-52
-58
-66
-69
-70
-70
-66
-66
-40
5
50
67
71
73
68
64
69
76
88
92
81
69
51
34
24
29
26
20
15
10
-2
-11
-16
-25
-33
-39
-49
-53
-50
-51
-59
-65
-73
-78
-67
-66
-72
-71
-78
-77
-70
-74
-69
-41
0
27
43
36
28
33
36
39
46
49
58
50
33
15
9
14
14
13
8
4
4
4
-11
-13
-25
-35
-35
-36
-34
-39
-47
-45
-46
-49
-42
-48
-52
-49
-54
-56
-51
-54
-54
-50
-48
-53
-53
-50
-37
-17
14
40
54
44
34
26
21
30
37
44
39
29
19
3
5
11
13
9
15
11
7
-4
-7
-10
-12
-19
-18
-18
-15
-22
-22
-21
-24
-26
-23
-27
-32
-24
-22
-21
-25
-24
-29
-29
-25
-26
-18
14
45
62
64
45
40
37
40
40
44
49
44
31
21
12
7
11
17
13
17
10
7
5
4
0
-2
-1
-10
-13
-9
-16
-11
-13
-16
-16
-20
-23
-22
-19
-22
-26
-24
-19
-21
-17
-25
-21
-22
-16
-11
0
30
60
69
62
50
39
33
38
33
47
58
47
44
36
14
14
21
22
27
18
16
16
6
0
-1
-4
-5
-8
-10
-11
-5
-4
-9
-7
-8
-5
-12
-15
-11
-18
-20
-20
-14
-18
-24
-20
-14
-14
-18
-15
-9
-10
-19
-8
22
55
69
69
62
42
27
28
39
47
49
50
47
34
23
13
16
22
25
26
23
14
3
-1
0
-8
-5
-5
-3
-2
-9
-7
-5
-8
-9
-14
-16
-11
-7
-13
-10
-13
-18
-12
-15
-19
-14
-13
-16
-14
-17
-11
-3
21
55
65
66
56
39
28
29
36
45
46
42
33
22
10
20
29
26
27
23
14
11
3
1
1
-3
-1
5
0
-2
-3
-3
0
-9
-7
-7
-6
-4
-10
-5
-6
-11
-9
-17
-20
-16
-18
-17
-13
-11
8
41
66
75
76
61
48
53
56
59
63
73
70
61
50
37
36
39
41
39
38
35
28
19
20
16
9
8
0
2
2
6
-3
-8
-10
-18
-8
-7
-12
-16
-20
-19
-17
-19
-19
-27
-23
-18
-18
-26
-22
-20
-26
-27
-20
1
39
69
79
85
81
72
63
75
70
76
82
83
80
66
53
54
46
50
56
47
45
42
35
28
24
22
21
11
3
7
8
6
-3
-5
-3
-9
-17
-20
-22
-19
-21
-21
-26
-26
-22
-21
-24
-29
-35
-29
-32
-34
-39
-39
-38
-22
13
49
85
101
91
79
73
69
77
82
87
91
85
75
60
56
52
63
60
52
45
37
31
24
16
12
11
12
8
-2
-3
0
-11
-26
-30
-31
-31
-37
-40
-43
-41
-40
-48
-46
-46
-49
-53
-49
-51
-51
-45
-19
24
60
81
84
73
61
53
56
61
69
72
65
54
49
44
32
32
41
40
31
23
16
6
1
-2
-17
-22
-23
-31
-33
-31
-35
-48
-48
-50
-56
-53
-56
-53
-58
-69
-67
-64
-68
-66
-58
-27
27
68
94
96
99
87
78
86
98
106
110
113
95
76
65
54
52
56
52
46
37
29
15
9
0
-6
-17
-29
-38
-46
-47
-43
-49
-62
-60
-68
-71
-73
-83
-84
-87
-85
-87
-89
-91
-86
-90
-90
-93
-92
-63
-31
13
62
83
85
86
83
87
93
99
108
115
116
108
81
65
51
44
46
44
37
26
10
0
-8
-18
-28
-35
-42
-54
-56
-64
-74
-74
-80
-83
-83
-94
-91
-93
-95
-101
-101
-104
-104
-102
-104
-103
-98
-93
-93
-95
-91
-75
-28
25
65
84
85
83
85
73
83
96
100
106
103
89
72
54
50
48
43
38
29
16
3
-5
-18
-39
-39
-40
-53
-53
-61
-67
-66
-73
-71
-79
-81
-87
-86
-87
-92
-86
-91
-96
-90
-92
-92
-89
-93
-95
-89
-83
-65
-25
17
54
75
77
69
64
59
65
71
79
79
77
56
37
36
37
37
34
26
24
15
3
-10
-9
-17
-29
-27
-34
-41
-52
-47
-53
-56
-57
-58
-64
-64
-60
-68
-70
-74
-73
-66
-67
-76
-72
-70
-71
-54
-21
26
64
80
86
81
72
73
84
89
95
96
103
86
67
55
44
46
46
47
40
31
22
13
-1
-4
-15
-20
-28
-28
-38
-41
-36
-42
-54
-53
-57
-63
-68
-63
-67
-69
-73
-66
-73
-77
-71
-64
-65
-73
-64
-51
-27
22
66
87
91
90
80
77
85
100
108
104
104
90
73
62
52
54
54
51
43
35
28
16
13
1
-11
-14
-15
-22
-34
-37
-33
-42
-44
-50
-52
-61
-57
-63
-69
-70
-68
-62
-70
-69
-66
-70
-71
-59
-41
0
48
79
89
80
72
81
73
82
86
85
87
83
70
57
54
47
40
45
34
25
19
5
2
-2
-7
-17
-21
-29
-34
-38
-43
-45
-53
-59
-59
-61
-56
-61
-52
-57
-59
-63
-67
-63
-21
23
56
77
88
83
77
74
72
81
90
97
88
80
68
50
39
36
30
31
27
18
16
1
-4
-15
-23
-33
-43
-48
-56
-51
-49
-56
-56
-60
-66
-66
-74
-70
-72
-72
-61
-26
19
54
76
73
68
61
68
65
74
77
79
82
66
47
38
33
26
30
18
12
9
3
-7
-20
-24
-31
-36
-42
-52
-57
-53
-54
-59
-69
-77
-72
-72
-69
-75
-80
-80
-74
-49
0
42
64
64
65
63
59
66
80
86
86
83
71
52
42
41
34
35
31
23
9
-3
-18
-21
-26
-34
-43
-45
-49
-61
-64
-61
-63
-65
-71
-68
-74
-70
-73
-82
-79
-83
-82
-80
-74
-73
-69
-48
-9
32
63
70
68
58
60
58
65
83
95
96
84
59
44
51
39
38
31
27
26
11
9
-1
-7
-9
-15
-26
-25
-30
-46
-57
-55
-53
-54
-56
-65
-65
-64
-67
-66
-69
-72
-63
-64
-70
-71
-75
-68
-43
-15
17
55
68
54
47
50
45
51
61
67
62
52
49
48
43
36
32
34
27
21
10
5
3
-2
-12
-16
-30
-29
-38
-36
-37
-36
-36
-45
-53
-46
-59
-52
-52
-53
-53
-55
-61
-59
-34
11
44
64
62
56
52
40
55
68
70
78
74
63
56
41
35
32
31
32
26
21
14
1
-3
-10
-15
-17
-26
-27
-26
-34
-37
-40
-41
-35
-44
-48
-42
-54
-71
-59
-59
-58
-59
-63
-61
-63
-57
-67
-68
-62
-51
-28
13
45
61
65
52
57
53
55
63
69
73
68
64
56
41
36
37
35
26
24
25
14
16
12
0
-4
-10
-18
-12
-20
-23
-16
-26
-25
-27
-31
-31
-36
-40
-43
-44
-40
-46
-54
-54
-42
-45
-47
-45
-47
-56
-50
-48
-31
18
59
65
67
60
54
46
55
60
66
74
75
59
44
40
36
29
36
37
35
31
22
13
11
3
-1
-9
-11
-7
-15
-20
-24
-31
-25
-31
-31
-32
-31
-34
-36
-31
-33
-41
-46
-44
-47
-51
-43
-37
-7
35
53
57
55
50
38
33
40
55
53
50
38
35
28
25
25
20
20
25
20
17
12
1
-4
-9
-14
-17
-22
-19
-10
-15
-12
-22
-27
-34
-37
-28
-35
-39
-44
-39
-38
-32
-9
28
51
58
54
54
39
38
39
43
48
51
45
35
21
18
17
33
38
30
19
11
7
4
-2
-10
-9
-8
0
5
1
-8
-15
-19
-24
-23
-24
-27
-34
-40
-36
-36
-27
4
39
61
69
63
54
53
48
54
64
61
59
51
44
42
38
31
31
31
29
27
23
16
8
6
2
-6
-7
-13
-21
-24
-26
-29
-35
-36
-39
-31
-43
-52
-42
-48
-50
-45
-42
-46
-50
-56
-51
-32
13
44
59
55
48
32
35
38
47
49
54
60
50
38
19
19
15
17
13
14
5
4
-2
-4
-10
-16
-23
-27
-27
-27
-32
-37
-40
-41
-42
-45
-49
-46
-45
-48
-55
-54
-53
-61
-60
-56
-60
-59
-61
-61
-60
-60
-63
-52
-54
-56
-55
-53
-46
-29
-7
24
44
38
26
20
15
18
16
18
32
29
27
13
5
-2
1
7
8
7
2
-6
-9
-22
-16
-18
-19
-20
-26
-24
-17
-20
-25
-27
-23
-21
-23
-31
-33
-35
-30
-34
-33
-31
-29
-31
-33
-31
-31
-31
-23
-26
-23
-21
-25
-28
-25
-26
-27
-12
21
45
47
39
18
6
3
15
11
15
22
25
19
2
-3
0
7
3
1
-1
-1
-3
-5
-6
-6
-2
-6
-2
-2
-6
-3
-6
-7
-5
-12
-19
-17
-11
-7
-10
-15
-21
-16
-11
-13
-13
-7
-11
-12
-9
-7
-7
-11
-8
-13
-9
4
25
42
48
41
30
19
9
5
12
19
15
16
15
8
1
-2
7
4
10
12
9
3
2
-3
-8
-7
-3
1
3
0
3
0
-1
-3
-4
-2
-7
-5
-3
-1
-3
-4
-1
-1
-6
0
-2
0
-1
0
1
4
-1
3
2
0
6
16
31
53
54
47
29
18
16
17
17
18
25
18
13
4
1
5
-1
4
6
17
11
3
-1
2
12
7
8
16
7
0
-5
-5
2
0
2
11
3
0
-2
-2
2
3
0
2
4
1
0
-1
1
10
6
-1
6
13
31
48
50
42
29
19
7
12
14
19
20
24
16
5
-3
0
11
16
13
11
14
2
-2
0
-5
-3
-4
-2
5
8
5
8
6
1
-5
5
7
8
1
3
-1
-2
2
10
7
-1
4
18
31
51
53
44
31
14
7
9
15
21
23
23
15
11
-1
3
10
15
14
17
12
7
-2
-1
1
-1
2
-4
2
1
7
6
8
9
6
2
2
6
8
2
-2
0
0
1
16
42
50
53
43
24
14
21
21
25
27
36
31
21
16
0
1
12
16
18
20
16
9
4
4
3
-2
-4
2
2
0
4
6
2
4
3
7
5
-1
-3
-2
-5
-5
-7
-3
0
-4
0
-2
19
52
63
55
43
40
32
32
32
39
39
37
40
41
29
17
16
20
23
26
25
24
24
21
14
5
7
5
5
8
7
5
4
1
-1
1
9
8
6
-4
-3
-9
-9
-6
-6
-4
-7
-13
-9
-1
-10
-16
-7
-6
4
22
45
57
56
49
37
28
35
41
49
51
51
46
40
30
27
26
30
26
30
27
24
21
16
11
14
15
13
4
8
5
0
-3
-7
-6
-14
-10
-8
-8
-13
-10
-7
-12
-20
-16
-19
-16
-16
-24
-22
-15
-20
-19
-8
10
37
56
62
49
42
38
30
35
45
49
48
40
40
32
23
25
21
20
29
26
21
20
12
16
15
6
1
7
7
-4
-11
-10
-14
-14
-15
-18
-14
-23
-22
-21
-24
-19
-22
-26
-20
-24
-22
-19
-7
23
49
52
57
51
40
27
32
41
47
47
48
41
31
29
31
22
20
22
24
18
14
14
15
13
5
0
-8
-10
-10
-4
-3
-13
-19
-19
-20
-28
-31
-33
-36
-36
-32
-33
-31
-32
-36
-27
-9
17
40
62
62
57
55
43
41
51
65
68
69
59
45
33
30
33
35
34
24
19
18
12
6
6
5
1
-7
-17
-18
-23
-26
-34
-37
-36
-34
-40
-40
-45
-44
-48
-45
-50
-54
-62
-59
-48
-58
-55
-50
-52
-43
-15
20
45
55
54
40
35
34
42
53
58
55
57
50
37
31
25
22
27
33
25
15
9
7
0
-2
-9
-15
-21
-23
-24
-32
-40
-36
-33
-32
-37
-46
-50
-45
-49
-54
-54
-60
-61
-52
-57
-63
-63
-65
-62
-61
-56
-39
-1
26
44
50
43
36
32
25
33
44
45
44
43
34
28
25
20
25
20
22
17
9
1
-4
-18
-23
-22
-22
-20
-22
-30
-31
-39
-48
-42
-41
-48
-55
-57
-62
-60
-58
-56
-56
-55
-63
-64
-64
-63
-51
-21
5
31
43
41
31
25
19
21
32
40
34
28
25
14
16
16
10
20
19
12
9
6
5
-6
-10
-6
-13
-25
-23
-22
-30
-24
-30
-33
-33
-37
-39
-41
-41
-40
-43
-48
-50
-50
-43
-10
18
46
52
48
49
42
38
39
46
49
54
50
35
25
23
24
24
26
25
27
21
9
1
4
0
1
-11
-13
-12
-22
-27
-29
-34
-39
-43
-41
-44
-42
-47
-47
-49
-53
-50
-51
-49
-34
-6
29
52
68
67
61
54
53
60
64
70
63
64
67
58
50
42
34
39
43
37
34
26
21
10
-9
-8
-8
-16
-20
